Time [s],Heat Flux [W m^-2]
0.0,0.0
0.01,0.0062188796086206
0.02,0.0497508401666348
0.03,0.167908080394312
0.04,0.3980011471124535
0.05,0.7773381768832883
0.06,1.343224137737666
0.07,2.132960071016472
0.08,3.1838423333541828
0.09,4.533161838832465
0.0999999999999999,6.218203301331727
0.1099999999999999,8.27624447710851
0.1199999999999999,10.7445554076266
0.1299999999999999,13.660397662669672
0.1399999999999999,17.061023583763422
0.15,20.9836755279349
0.16,25.465585111836912
0.17,30.543972456265305
0.18,36.25604543109674
0.19,42.638998900675006
0.2,49.73001396967327
0.21,57.56625722946006
0.22,66.1848800049969
0.23,75.62301760229457
0.24,85.91778855645641
0.25,97.10629388033576
0.26,109.22561631383486
0.2700000000000001,122.31281957387316
0.2800000000000001,136.40494760505302
0.2900000000000001,151.53902383104753
0.3000000000000001,167.75205040674243
0.3100000000000001,185.0810074711548
0.3200000000000001,203.5628524011584
0.3300000000000001,223.23451906604305
0.3400000000000001,244.13291708293343
0.3500000000000001,266.29493107309656
0.3600000000000001,289.7574199191632
0.3700000000000001,314.5572160232913
0.3800000000000001,340.7311245662986
0.3900000000000002,368.3159227677909
0.4000000000000002,397.3483591473114
0.4100000000000002,427.86515278654224
0.4200000000000002,459.90299259257984
0.4300000000000002,493.49853656231386
0.4400000000000002,528.6884110479365
0.4500000000000002,565.5092100236047
0.4600000000000002,603.997494353291
0.4700000000000002,644.1897910598358
0.4800000000000002,686.1225925952405
0.4900000000000002,729.8323561122207
0.5000000000000002,775.3555027370463
0.5100000000000002,822.728416843696
0.5200000000000002,871.9874453293545
0.5300000000000002,923.1688968912686
0.5400000000000003,976.3090413050062
0.5500000000000003,1031.444108704123
0.5600000000000003,1088.6102888612786
0.5700000000000003,1147.8437304708184
0.5800000000000003,1209.1805404328543
0.5900000000000003,1272.6567831388602
0.6000000000000003,1338.3084797588233
0.6100000000000003,1406.1716075299491
0.6200000000000003,1476.2820990469856
0.6300000000000003,1548.6758415541476
0.6400000000000003,1623.3886762387008
0.6500000000000004,1700.4563975262151
0.6600000000000004,1779.9147523775075
0.6700000000000004,1861.7994395873168
0.6800000000000004,1946.1461090847197
0.6900000000000004,2032.9903612353064
0.7000000000000004,2122.367746145177
0.7100000000000004,2214.313762966726
0.7200000000000004,2308.8638592062966
0.7300000000000004,2406.0534300336885
0.7400000000000004,2505.9178175935613
0.7500000000000004,2608.4923103187534
0.7600000000000005,2713.81214224554
0.7700000000000005,2821.912492330858
0.7800000000000005,2932.828483771512
0.7900000000000005,3046.5951833253976
0.8000000000000005,3163.24760063475
0.8100000000000005,3282.820687551461
0.8200000000000005,3405.349337464469
0.8300000000000005,3530.8683846292524
0.8400000000000005,3659.4126034994497
0.8500000000000005,3791.0167080606334
0.8600000000000005,3925.715351166256
0.8700000000000006,4063.5431238757783
0.8800000000000006,4204.534554795032
0.8900000000000006,4348.724109418813
0.9000000000000006,4496.1461894757285
0.9100000000000006,4646.835132275352
0.9200000000000006,4800.825210057647
0.9300000000000006,4958.150629344768
0.9400000000000006,5118.845530295148
0.9500000000000006,5282.94398606002
0.9600000000000006,5450.480002142286
0.9700000000000006,5621.487515757824
0.9800000000000006,5796.000395199211
0.9900000000000008,5974.052439201915
1.0000000000000009,6155.677376312968
1.010000000000001,6340.908864262117
1.020000000000001,6529.780489335525
1.0300000000000007,6722.32576575195
1.0400000000000007,6918.578135041572
1.0500000000000007,7118.570965427306
1.0600000000000007,7322.33755120881
1.0700000000000007,7529.911112148999
1.0800000000000007,7741.324792863302
1.0900000000000007,7956.611662211521
1.1000000000000008,8175.804712692387
1.1100000000000008,8398.936859840802
1.1200000000000008,8626.040941627802
1.1300000000000008,8857.149717863267
1.1400000000000008,9092.295869601368
1.1500000000000008,9331.511998548784
1.1600000000000008,9574.830626475765
1.1700000000000008,9822.284194629894
1.1800000000000008,10073.9050631528
1.1900000000000008,10329.725510499657
1.2000000000000008,10589.777732861514
1.2100000000000009,10854.093843590592
1.2200000000000009,11122.705872628416
1.2300000000000009,11395.645765936884
1.2400000000000009,11672.945384932284
1.2500000000000009,11954.636505922244
1.260000000000001,12240.75081954564
1.270000000000001,12531.319930215546
1.280000000000001,12826.375355565113
1.290000000000001,13125.948525896532
1.300000000000001,13430.07078363299
1.310000000000001,13738.773382773688
1.320000000000001,14052.08748835196
1.330000000000001,14370.044175896384
1.340000000000001,14692.674430895138
1.350000000000001,15020.009148263343
1.360000000000001,15352.079131813569
1.370000000000001,15688.915093729542
1.380000000000001,16030.547654042952
1.390000000000001,16377.007340113452
1.400000000000001,16728.324586111852
1.410000000000001,17084.52973250652
1.420000000000001,17445.653025553012
1.430000000000001,17811.724616786905
1.440000000000001,18182.774562519924
1.450000000000001,18558.83282333926
1.460000000000001,18939.929263610265
1.470000000000001,19326.09365098232
1.480000000000001,19717.35565589812
1.490000000000001,20113.74485110617
1.500000000000001,20515.290711176716
1.5100000000000011,20922.022612020843
1.5200000000000011,21333.969830413214
1.5300000000000011,21751.16154351787
1.5400000000000011,22173.626828417597
1.5500000000000012,22601.39466164661
1.5600000000000012,23034.493918726712
1.5700000000000012,23472.953373706736
1.5800000000000012,23916.801698705585
1.5900000000000012,24366.06746345855
1.6000000000000012,24820.779134867167
1.6100000000000012,25280.96507655252
1.6200000000000012,25746.65354841204
1.6300000000000012,26217.87270617969
1.6400000000000012,26694.65060098974
1.6500000000000012,27177.01517894402
1.6600000000000013,27664.99428068272
1.6700000000000013,28158.615640958546
1.6800000000000013,28657.906888214668
1.6900000000000013,29162.895544166
1.7000000000000013,29673.60902338416
1.7100000000000013,30190.07463288584
1.7200000000000013,30712.31957172501
1.730000000000001,31240.37093058838
1.740000000000001,31774.255691394726
1.750000000000001,32314.000726897568
1.7600000000000011,32859.63280029176
1.7700000000000014,33411.178564823334
1.7800000000000014,33968.66456340323
1.7900000000000014,34532.11722822458
1.8000000000000014,35101.56288038359
1.8100000000000012,35677.02772950408
1.8200000000000012,36258.53787336576
1.8300000000000012,36846.11929753599
1.8400000000000012,37439.79787500544
1.8500000000000012,38039.59936582713
1.8600000000000012,38645.54941675952
1.8700000000000012,39257.67356091288
1.8800000000000012,39875.997217399614
1.8900000000000012,40500.54569098833
1.9000000000000012,41131.3441717613
1.9100000000000013,41768.40884682162
1.9200000000000013,42411.64584229352
1.9300000000000013,43061.03582431758
1.9400000000000013,43716.59511777064
1.9500000000000013,44378.33973895375
1.9600000000000013,45046.28539349679
1.9700000000000013,45720.4474742823
1.980000000000001,46400.84105938999
1.990000000000001,47087.480910062
2.0000000000000013,47689.20401460216
2.010000000000001,47837.83406020632
2.020000000000001,47986.73302169212
2.0300000000000007,48135.90073105295
2.0400000000000005,48285.33701791118
2.0500000000000003,48435.04170951641
2.06,48585.01463074403
2.07,48735.25560409381
2.08,48885.76444968839
2.0899999999999994,49036.54098527193
2.099999999999999,49187.585026208864
2.109999999999999,49338.896385482345
2.1199999999999988,49490.47487369324
2.1299999999999986,49642.32029905873
2.1399999999999983,49794.43246741116
2.149999999999998,49946.811182197074
2.159999999999998,50099.45624447579
2.1699999999999977,50252.36745291864
2.179999999999997,50405.54460380775
2.1899999999999973,50558.9874910351
2.199999999999997,50712.69590610168
2.209999999999997,50866.66963811652
2.2199999999999966,51020.90847379584
2.2299999999999964,51175.41219746222
2.239999999999996,51330.18059104386
2.249999999999996,51485.21343407384
2.259999999999996,51640.51050368943
2.269999999999996,51796.07157463151
2.279999999999996,51951.89641924375
2.289999999999995,52107.98480747234
2.299999999999995,52264.33650686536
2.3099999999999947,52420.95128257215
2.3199999999999945,52577.82889734306
2.3299999999999943,52734.96911152904
2.339999999999994,52892.371683081205
2.349999999999994,53050.0363675507
2.3599999999999937,53207.96291808815
2.369999999999993,53366.15108544378
2.379999999999993,53524.60061796693
2.389999999999993,53683.31126160612
2.399999999999993,53842.28275990906
2.4099999999999926,54001.51485402223
2.4199999999999924,54161.00728269122
2.429999999999992,54320.75978226072
2.439999999999992,54480.77208667442
2.449999999999992,54641.04392747528
2.4599999999999915,54801.57503380585
2.4699999999999918,54962.36513240812
2.479999999999991,55123.41394762414
2.489999999999991,55284.72120139616
2.4999999999999907,55446.28661326696
2.5099999999999905,55608.10990038031
2.5199999999999902,55770.19077748142
2.52999999999999,55932.52895691739
2.53999999999999,56095.12414863772
2.5499999999999896,56257.97606019488
2.5599999999999894,56421.08439674505
2.569999999999989,56584.44886104872
2.579999999999989,56748.06915347124
2.5899999999999888,56911.944971983765
2.5999999999999885,57076.07601216409
2.6099999999999883,57240.46196719727
2.619999999999988,57405.10252787679
2.629999999999988,57569.99738260519
2.639999999999988,57735.14621739533
2.6499999999999875,57900.5487158713
2.6599999999999877,58066.20455926942
2.669999999999987,58232.11342643945
2.679999999999987,58398.27499384575
2.689999999999986,58564.68893556845
2.6999999999999864,58731.354923304745
2.709999999999986,58898.27262637015
2.719999999999986,59065.441711699874
2.7299999999999858,59232.861843850194
2.7399999999999856,59400.53268499989
2.7499999999999853,59568.45389495179
2.759999999999985,59736.625131134206
2.769999999999985,59905.04604860253
2.7799999999999847,60073.71630004096
2.7899999999999845,60242.63553576403
2.7999999999999843,60411.80340371843
2.809999999999984,60581.21954948466
2.819999999999984,60750.88361627889
2.829999999999984,60920.79524495481
2.8399999999999834,61090.95407400569
2.849999999999983,61261.35973956593
2.859999999999983,61432.01187541343
2.869999999999983,61602.91011297155
2.8799999999999826,61774.054081310926
2.8899999999999824,61945.44340715201
2.899999999999982,62117.07771486696
2.909999999999982,62288.95662648196
2.9199999999999817,62461.079761679466
2.929999999999981,62633.446737800536
2.9399999999999813,62806.05716984729
2.949999999999981,62978.91067048512
2.959999999999981,63152.00685004532
2.9699999999999807,63325.34531652742
2.9799999999999804,63498.92567560194
2.98999999999998,63672.74753061292
2.99999999999998,63846.8104825804
3.00999999999998,64021.114130203365
3.01999999999998,64195.65806986223
3.02999999999998,64370.44189562192
3.039999999999979,64545.46519923438
3.049999999999979,64720.72757014165
3.0599999999999787,64896.22859547876
3.0699999999999785,65071.967860076766
3.0799999999999783,65247.94494646547
3.089999999999978,65424.15943487693
3.099999999999978,65600.61090324816
3.1099999999999777,65777.29892722459
3.119999999999977,65954.2230801631
3.129999999999977,66131.38293313522
3.139999999999977,66308.77805493076
3.149999999999977,66486.40801206068
3.1599999999999766,66664.27236876093
3.1699999999999764,66842.37068699539
3.179999999999976,67020.70252646
3.189999999999976,67199.26744458565
3.199999999999976,67378.06499654213
3.2099999999999755,67557.09473524166
3.2199999999999758,67736.35621134265
3.229999999999975,67915.84897325317
3.239999999999975,68095.57256713495
3.2499999999999747,68275.52653690713
3.2599999999999745,68455.71042424996
3.2699999999999743,68636.12376860916
3.279999999999974,68816.76610719918
3.289999999999974,68997.6369750077
3.2999999999999736,69178.73590479966
3.3099999999999734,69360.06242712101
3.319999999999973,69541.61607030318
3.329999999999973,69723.3963604671
3.3399999999999728,69905.40282152746
3.349999999999973,70087.63497519698
3.3599999999999723,70270.09234099077
3.369999999999972,70452.7744362305
3.379999999999972,70635.68077604909
3.389999999999972,70818.8108733951
3.3999999999999715,71002.164239037
3.4099999999999717,71185.740381568
3.419999999999971,71369.53880741047
3.429999999999971,71553.55902082064
3.43999999999997,71737.8005238933
3.4499999999999704,71922.2628165665
3.45999999999997,72106.94539662631
3.46999999999997,72291.84775971173
3.47999999999997,72476.96939931944
3.4899999999999696,72662.3098068087
3.4999999999999694,72847.86847140646
3.509999999999969,73033.64488021223
3.519999999999969,73219.63851820317
3.5299999999999687,73405.8488682391
3.5399999999999685,73592.27541106787
3.5499999999999683,73778.91762533023
3.559999999999968,73965.7749875652
3.569999999999968,74152.84697221541
3.579999999999968,74340.13305163244
3.5899999999999674,74527.6326960819
3.5999999999999672,74715.3453737491
3.609999999999967,74903.27055074446
3.619999999999967,75091.40769110888
3.629999999999967,75279.75625681943
3.6399999999999664,75468.3157077948
3.649999999999966,75657.08550190098
3.659999999999966,75846.06509495703
3.6699999999999657,76035.2539407405
3.6799999999999655,76224.65149099361
3.689999999999965,76414.25719542862
3.699999999999965,76604.07050173394
3.709999999999965,76794.09085557994
3.7199999999999647,76984.3177006249
3.729999999999965,77174.75047852092
3.739999999999964,77365.38862891997
3.749999999999964,77556.23158948008
3.759999999999964,77747.27879587113
3.769999999999964,77938.52968178125
3.7799999999999634,78129.98367892299
3.789999999999963,78321.64021703944
3.799999999999963,78513.49872391058
3.8099999999999623,78705.55862535955
3.8199999999999625,78897.819345259
3.8299999999999614,79090.28030553751
3.839999999999962,79282.94092618607
3.849999999999962,79475.80062526453
3.8599999999999617,79668.85881890796
3.8699999999999615,79862.1149213336
3.879999999999961,80055.56834484704
3.889999999999961,80249.2184998491
3.899999999999961,80443.06479484249
3.9099999999999606,80637.10663643852
3.91999999999996,80831.34342936387
3.92999999999996,81025.77457646737
3.93999999999996,81220.3994787269
3.94999999999996,81415.21753525622
3.95999999999996,81610.22814331202
3.9699999999999593,81805.43069830074
3.979999999999959,82000.82459378564
3.989999999999959,82196.40922149389
3.999999999999959,82392.18397132367
4.009999999999959,82588.14823135115
4.019999999999959,82784.3013878378
4.029999999999959,82980.6428252377
4.039999999999958,83177.17192620448
4.049999999999958,83373.88807159883
4.059999999999958,83570.79064049586
4.069999999999958,83767.87901019226
4.079999999999957,83965.15255621388
4.089999999999957,84162.61065232317
4.099999999999957,84360.2526705264
4.109999999999957,84558.07798108157
4.119999999999957,84756.0859525057
4.129999999999956,84954.27595158241
4.139999999999956,85152.64734336984
4.149999999999956,85351.19949120781
4.159999999999956,85549.93175672609
4.169999999999956,85748.84349985175
4.179999999999955,85947.93407881698
4.189999999999955,86147.20285016709
4.199999999999955,86346.64916876816
4.209999999999955,86546.27238781504
4.2199999999999545,86746.07185883935
4.229999999999954,86946.04693171717
4.239999999999954,87146.19695467727
4.249999999999954,87346.52127430901
4.259999999999954,87547.0192355706
4.269999999999953,87747.69018179688
4.279999999999953,87948.5334547078
4.289999999999953,88149.54839441623
4.299999999999953,88350.73433943644
4.3099999999999525,88552.09062669236
4.319999999999952,88753.6165915255
4.329999999999952,88955.31156770374
4.339999999999952,89157.17488742928
4.349999999999952,89359.20588134728
4.359999999999952,89561.4038785539
4.369999999999951,89763.7682066053
4.379999999999951,89966.29819152562
4.389999999999951,90168.99315781564
4.399999999999951,90371.85242846148
4.40999999999995,90574.8753249428
4.41999999999995,90778.06116724187
4.42999999999995,90981.40927385192
4.43999999999995,91184.91896178572
4.4499999999999496,91388.58954658448
4.459999999999949,91592.42034232656
4.469999999999949,91796.41066163612
4.479999999999949,92000.55981569196
4.489999999999949,92204.86711423643
4.4999999999999485,92409.33186558416
4.509999999999948,92613.95337663087
4.519999999999948,92818.7309528626
4.529999999999948,93023.66389836428
4.539999999999948,93228.75151582892
4.549999999999947,93433.99310656656
4.559999999999947,93639.38797051336
4.569999999999947,93844.93540624046
4.579999999999947,94050.63471096336
4.589999999999947,94256.48518055066
4.599999999999946,94462.48610953375
4.609999999999946,94668.63679111532
4.619999999999946,94874.9365171791
4.629999999999946,95081.3845782988
4.6399999999999455,95287.98026374752
4.649999999999945,95494.72286150685
4.659999999999945,95701.61165827636
4.669999999999945,95908.6459394828
4.679999999999945,96115.82498928964
4.689999999999944,96323.14809060612
4.699999999999944,96530.6145250972
4.709999999999944,96738.22357319246
4.719999999999944,96945.97451409584
4.729999999999944,97153.866625795
4.739999999999943,97361.89918507107
4.749999999999943,97570.0714675078
4.759999999999943,97778.38274750166
4.769999999999943,97986.83229827088
4.779999999999943,98195.41939186546
4.789999999999942,98404.14329917644
4.799999999999942,98613.00328994592
4.809999999999942,98821.99863277668
4.819999999999942,99031.12859514162
4.8299999999999415,99240.39244339374
4.839999999999941,99449.78944277576
4.849999999999941,99659.31885743
4.859999999999941,99868.9799504082
4.869999999999941,100078.77198368104
4.87999999999994,100288.6942181485
4.88999999999994,100498.74591364904
4.89999999999994,100708.92632897024
4.90999999999994,100919.23472185808
4.91999999999994,101129.67034902707
4.929999999999939,101340.23246617048
4.939999999999939,101550.92032796968
4.949999999999939,101761.73318810474
4.959999999999939,101972.67029926424
4.9699999999999385,102183.73091315488
4.979999999999938,102394.9142805122
4.989999999999938,102606.21965111016
4.999999999999938,102817.64627377129
5.009999999999938,103029.19339637694
5.019999999999937,103240.86026587736
5.029999999999937,103452.64612830164
5.039999999999937,103664.550228768
5.049999999999937,103876.57181149408
5.0599999999999365,104088.71011980675
5.069999999999936,104300.96439615272
5.079999999999936,104513.33388210864
5.089999999999936,104725.81781839092
5.099999999999936,104938.41544486675
5.109999999999936,105151.12600056356
5.119999999999935,105363.9487236799
5.129999999999935,105576.88285159538
5.139999999999935,105789.92762088112
5.149999999999935,106003.08226731
5.159999999999934,106216.34602586715
5.169999999999934,106429.71813076008
5.179999999999934,106643.19781542911
5.189999999999934,106856.78431255788
5.199999999999934,107070.47685408356
5.209999999999933,107284.2746712073
5.219999999999933,107498.17699440484
5.229999999999933,107712.18305343656
5.239999999999933,107926.29207735814
5.2499999999999325,108140.50329453118
5.259999999999932,108354.81593263334
5.269999999999932,108569.2292186688
5.279999999999932,108783.7423789792
5.289999999999932,108998.35463925362
5.299999999999931,109213.0652245392
5.309999999999931,109427.87335925196
5.319999999999931,109642.77826718692
5.329999999999931,109857.77917152888
5.339999999999931,110072.87529486282
5.34999999999993,110288.06585918472
5.35999999999993,110503.35008591172
5.36999999999993,110718.727195893
5.37999999999993,110934.1964094201
5.3899999999999295,111149.75694623785
5.399999999999929,111365.4080255546
5.409999999999929,111581.14886605307
5.419999999999929,111796.97868590082
5.429999999999929,112012.89670276096
5.439999999999928,112228.90213380268
5.449999999999928,112444.99419571189
5.459999999999928,112661.17210470184
5.469999999999928,112877.43507652388
5.479999999999928,113093.782326478
5.489999999999927,113310.21306942344
5.499999999999927,113526.72651978931
5.509999999999927,113743.32189158555
5.519999999999927,113959.99839841314
5.529999999999927,114176.75525347516
5.539999999999926,114393.59166958708
5.549999999999926,114610.50685918776
